wavenumber,reflectance
400.1569,31.230408534513927
400.639,30.523709737158363
401.1211,29.966383611597653
401.6032,29.417750496116355
402.0853,28.90733613787529
402.5674,28.555956383459836
403.0496,28.24365419355446
403.5317,28.028805118751094
404.0138,27.907022026518618
404.4959,27.883028192622785
404.978,27.833732585340066
405.4601,27.750612759217187
405.9423,27.708915679750103
406.4244,27.67718725328968
406.9065,27.609123437854755
407.3886,27.502751239490994
407.8707,27.3528235688162
408.3528,27.14322899460091
408.835,26.955100821567026
409.3171,26.7860375389334
409.7992,26.578642687971676
410.2813,26.347674571794656
410.7634,26.160548765826267
411.2455,26.016397912464818
411.7277,25.89203102436381
412.2098,25.804171160770686
412.6919,25.70732942376537
413.174,25.59981085505058
413.6561,25.518525480644534
414.1382,25.454304730287376
414.6204,25.378143636729053
415.1025,25.292111521818097
415.5846,25.204177448287286
416.0667,25.10777740869735
416.5488,25.011248265378168
417.0309,24.91403686140584
417.5131,24.806268213392396
417.9952,24.68864889873384
418.4773,24.551593078430994
418.9594,24.391719349133027
419.4415,24.212823907579917
419.9236,24.010710393996163
420.4058,23.830598366422414
420.8879,23.675659200880656
421.37,23.519873921355817
421.8521,23.37487479592402
422.3342,23.243075281250512
422.8163,23.12419949898401
423.2985,23.027321267182977
423.7806,22.954429853183715
424.2627,22.864319555439
424.7448,22.75641820650741
425.2269,22.653475885623685
425.709,22.546031571980542
426.1912,22.422654736781563
426.6733,22.283133320330105
427.1554,22.125110349593356
427.6375,21.944578110778338
428.1196,21.79457271450748
428.6017,21.677596074484697
429.0839,21.56391913745168
429.566,21.46661353235501
430.0481,21.40071506518464
430.5302,21.366995664225996
431.0123,21.3696245122212
431.4944,21.414293385327667
431.9766,21.44411394732169
432.4587,21.457682750996035
432.9408,21.488808504980717
433.4229,21.52446200776357
433.905,21.552749747973827
434.3871,21.5744432695606
434.8693,21.584731103786673
435.3514,21.579619761287628
435.8335,21.59716357038425
436.3156,21.637686642257584
436.7977,21.678317829490656
437.2798,21.727387319937165
437.762,21.772827407416457
438.2441,21.811741093319217
438.7262,21.856115804969036
439.2083,21.90252852886665
439.6904,21.943183297922364
440.1725,21.978557437663227
440.6547,22.009533813159006
441.1368,22.03412947029895
441.6189,22.05377726542646
442.101,22.067763548989976
442.5831,22.07337091094537
443.0652,22.070223663842462
443.5474,22.05722453898652
444.0295,22.03325062468307
444.5116,21.99787156627116
444.9937,21.95007730926745
445.4758,21.92292957882738
445.9579,21.919082930213353
446.4401,21.921662410909427
446.9222,21.93968017277096
447.4043,21.967734021754104
447.8864,22.005792541950267
448.3685,22.064782573020018
448.8506,22.144708885809543
449.3328,22.208656027577764
449.8149,22.25589306291114
450.297,22.305208052087558
450.7791,22.347754745051
451.2612,22.39154366475244
451.7433,22.437594889388503
452.2255,22.474579648456743
452.7076,22.503755548342202
453.1897,22.554373654258647
453.6718,22.62702861251573
454.1539,22.708082303743094
454.636,22.80473974315861
455.1182,22.90157184166001
455.6003,22.997298368284305
456.0824,23.105541905067604
456.5645,23.222974425950575
457.0466,23.335847297133455
457.5287,23.444612719131595
458.0109,23.553575832056865
458.493,23.659424856948146
458.9751,23.75922461435361
459.4572,23.852013571815853
459.9393,23.936076702796267
460.4214,24.00971273234527
460.9036,24.0930146053865
461.3857,24.186554526072527
461.8678,24.278580867170007
462.3499,24.37377290606588
462.832,24.476346450414706
463.3141,24.58613140895256
463.7963,24.70494929490393
464.2784,24.834289364510138
464.7605,24.95710199244799
465.2426,25.072985146498052
465.7247,25.191829765425368
466.2068,25.309706717868398
466.689,25.427308920630367
467.1711,25.545225027020006
467.6532,25.659965002087215
468.1353,25.771519125622543
468.6174,25.894374775460697
469.0995,26.029064916780445
469.5817,26.168427032787413
470.0638,26.31609451587737
470.5459,26.46262425962718
471.028,26.607130258698884
471.5101,26.757262759640394
471.9922,26.910820017391362
472.4744,27.04931599900422
472.9565,27.17169912083487
473.4386,27.285008041707155
473.9207,27.384076543303824
474.4028,27.481182931715594
474.8849,27.576572194603582
475.3671,27.659406976425025
475.8492,27.731920805744444
476.3313,27.819230902006566
476.8134,27.922165312590348
477.2955,28.030054930832904
477.7776,28.149427868667917
478.2598,28.262418504143056
478.7419,28.367953993647944
479.224,28.48048446523062
479.7061,28.596170194477292
480.1882,28.708350152916704
480.6703,28.818156101699305
481.1525,28.926151959096547
481.6346,29.030994636297603
482.1167,29.14025351703013
482.5988,29.254152094336956
483.0809,29.367911778611195
483.563,29.483231380040042
484.0452,29.595614674342745
484.5273,29.704236507184113
485.0094,29.81250613529865
485.4915,29.919119761747126
485.9736,30.02553245982388
486.4557,30.132069546009976
486.9379,30.23688888681159
487.42,30.34033492326509
487.9021,30.44200217261046
488.3842,30.541543156416996
488.8663,30.639342257439846
489.3484,30.735142873299303
489.8306,30.831476414638324
490.3127,30.928549020337492
490.7948,31.024873981150392
491.2769,31.121114688635437
491.759,31.213857989729057
492.2411,31.30272302802938
492.7233,31.389891256106182
493.2054,31.474442322194125
493.6875,31.558135370393124
494.1696,31.64122145667563
494.6517,31.722064140304063
495.1339,31.801089683325866
495.616,31.881088913186634
496.0981,31.96214434689105
496.5802,32.04325469758396
497.0623,32.12516705575983
497.5444,32.205938348829974
498.0266,32.2855173628742
498.5087,32.365538915249616
498.9908,32.44563094804349
499.4729,32.519931975371094
499.955,32.58808306421096
500.4371,32.65261964676913
500.9193,32.71193534598642
501.4014,32.76988451789122
501.8835,32.8266430019924
502.3656,32.87886668522303
502.8477,32.92731980096553
503.3298,32.97440883876939
503.812,33.019886647256776
504.2941,33.063063097348646
504.7762,33.10443693616747
505.2583,33.14165397526128
505.7404,33.174551233766664
506.2225,33.204654624528416
506.7047,33.231390296944774
507.1868,33.2565865141569
507.6689,33.28052505676482
508.151,33.30188090998055
508.6331,33.321165257907225
509.1152,33.33761452818323
509.5974,33.3510826536458
510.0795,33.36237596822271
510.5616,33.37130331483826
511.0437,33.38857486027161
511.5258,33.41540364212608
512.0079,33.446651683927854
512.4901,33.48547989162083
512.9722,33.525926450332456
513.4543,33.56779385824977
513.9364,33.616977830859284
514.4185,33.67244429037211
514.9006,33.71616538210667
515.3828,33.74734175471615
515.8649,33.77401152987628
516.347,33.79143756154844
516.8291,33.80904664362898
517.3112,33.82732715481628
517.7933,33.83745120151168
518.2755,33.841217179950974
518.7576,33.84407017865665
519.2397,33.84514051622287
519.7218,33.84278537200441
520.2039,33.83795099577619
520.686,33.83145334266499
521.1682,33.823414874187094
521.6503,33.81413990109013
522.1324,33.804002185476456
522.6145,33.79314986290705
523.0966,33.78190241410106
523.5787,33.770682349831745
524.0609,33.75977415014516
524.543,33.749488405768076
525.0251,33.74015264450914
525.5072,33.732065062352625
525.9893,33.72554343289853
526.4714,33.709962053612685
526.9536,33.684507222400384
527.4357,33.65461078385707
527.9178,33.61739937100979
528.3999,33.57944929840315
528.882,33.54128618084029
529.3641,33.49717079897177
529.8463,33.44852621128158
530.3284,33.40009719394803
530.8105,33.3515967270701
531.2926,33.301721995314395
531.7747,33.25157268871004
532.2568,33.19695558866385
532.739,33.1376873210621
533.2211,33.07674504942243
533.7032,33.01320403408232
534.1853,32.95212512224566
534.6674,32.89432918499704
535.1495,32.83678017932163
535.6317,32.781011991706954
536.1138,32.72486242124867
536.5959,32.66816917071524
537.078,32.613418819581774
537.5601,32.56023830420814
538.0422,32.501700657491085
538.5244,32.43757071121543
539.0065,32.37097959062428
539.4886,32.3001536567748
539.9707,32.23351255385052
540.4528,32.171779563626025
540.9349,32.10939281250692
541.4171,32.0484744249867
541.8992,31.989678211154377
542.3813,31.93275364222717
542.8634,31.87916889416116
543.3455,31.829213369259183
543.8276,31.775950867287506
544.3098,31.7192331352029
544.7919,31.66279144298016
545.274,31.60499137748483
545.7561,31.54191147393777
546.2382,31.473256610503185
546.7203,31.39949240571327
547.2025,31.31932239135334
547.6846,31.239793325853494
548.1667,31.161008263944915
548.6488,31.078205614902043
549.1309,30.992872673800036
549.613,30.91258545882578
550.0952,30.8376400274697
550.5773,30.7655417773898
551.0594,30.698398059334888
551.5415,30.630583577395743
552.0236,30.562034498514944
552.5057,30.497487838321383
552.9879,30.435912497185644
553.47,30.370804928847484
553.9521,30.302234555351845
554.4342,30.232718708337842
554.9163,30.160682887562224
555.3984,30.091376858917705
555.8806,30.02515289682714
556.3627,29.958128517201114
556.8448,29.891506372082667
557.3269,29.822367841014625
557.809,29.750024671950154
558.2911,29.676732938169998
558.7733,29.601568289720518
559.2554,29.52531564776943
559.7375,29.448130318225292
560.2196,29.368779691655742
560.7017,29.287403304824046
561.1838,29.21189959034421
561.666,29.14282223497265
562.1481,29.07649455012306
562.6302,29.01507766325987
563.1123,28.95513885739736
563.5944,28.896550652986882
564.0765,28.842968737178214
564.5587,28.793832416247373
565.0408,28.744735007533578
565.5229,28.69592355939536
566.005,28.649307939739046
566.4871,28.603962729965513
566.9692,28.558994869432414
567.4514,28.514332169194656
567.9335,28.46965125612029
568.4156,28.42458439007776
568.8977,28.38267147295894
569.3798,28.343973034804318
569.8619,28.306356354115625
570.3441,28.270613288815362
570.8262,28.234350269109065
571.3083,28.197176597864235
571.7904,28.160825731973457
572.2725,28.124617736941474
572.7546,28.097950515286602
573.2368,28.08187228869375
573.7189,28.071385619681383
574.201,28.069180997232678
574.6831,28.070056515216713
575.1652,28.073656468778935
575.6473,28.084973985051096
576.1295,28.102983547162175
576.6116,28.120540624808953
577.0937,28.137710320072333
577.5758,28.157297345678945
578.0579,28.17757462799935
578.54,28.194029608901722
579.0222,28.206003173996088
579.5043,28.214041351047122
579.9864,28.216478148280384
580.4685,28.22264931762706
580.9506,28.232688601877406
581.4327,28.240286497050164
581.9149,28.247414075101585
582.397,28.25875152849455
582.8791,28.274139614526504
583.3612,28.29277722020731
583.8433,28.315895629818684
584.3254,28.341395484615017
584.8076,28.36953071052168
585.2897,28.40254415022069
585.7718,28.440278759963686
586.2539,28.483527394475406
586.736,28.532923422289052
587.2181,28.588279559688978
587.7003,28.65015311863767
588.1824,28.707461016043347
588.6645,28.75935686492345
589.1466,28.8117483843109
589.6287,28.861675164281678
590.1108,28.9160768150445
590.593,28.975598793811784
591.0751,29.034293541675066
591.5572,29.093729008480196
592.0393,29.159378970323967
592.5214,29.231061105136245
593.0035,29.307290200612023
593.4857,29.389418206144917
593.9678,29.47289173159031
594.4499,29.557587812491757
594.932,29.646933522540785
595.4141,29.73999537665308
595.8962,29.832477300290304
596.3784,29.924361139458053
596.8605,30.017048775987835
597.3426,30.109425153053113
597.8247,30.204912961701492
598.3068,30.30362127375843
598.7889,30.402872435108232
599.2711,30.503362616051476
599.7532,30.602673907746084
600.2353,30.70020778502718
600.7174,30.79753254460415
601.1995,30.893821486145285
601.6816,30.98969613829514
602.1638,31.085161725712794
602.6459,31.179093543960335
603.128,31.27151526215682
603.6101,31.36722968364704
604.0922,31.466429163332965
604.5743,31.56673891500379
605.0565,31.66937361062694
605.5386,31.774247159271074
606.0207,31.88138562863675
606.5028,31.991916669349713
606.9849,32.10600292568651
607.467,32.219828360144895
607.9492,32.33341071432157
608.4313,32.44888224252687
608.9134,32.565408724164136
609.3955,32.67495331317851
609.8776,32.77681239701798
610.3597,32.874093971769895
610.8419,32.964422052898605
611.324,33.05033783158159
611.8061,33.13158793247788
612.2882,33.20458054117612
612.7703,33.26940554547643
613.2524,33.33556853660099
613.7346,33.40307920026138
614.2167,33.46704544827863
614.6988,33.529641946019886
615.1809,33.60101225364952
615.663,33.6820678092688
616.1451,33.76986186520928
616.6273,33.867558623214265
617.1094,33.96828341038708
617.5915,34.07234792476375
618.0736,34.186329607002776
618.5557,34.3092988437725
619.0378,34.41545675962462
619.52,34.50347850768249
620.0021,34.58534436577516
620.4842,34.654246456857756
620.9663,34.72694855758864
621.4484,34.80459577712692
621.9305,34.873025279613195
622.4127,34.93582538005174
622.8948,34.995941470549084
623.3769,35.05179992422778
623.859,35.104340715558855
624.3411,35.15375504500178
624.8232,35.1998041793153
625.3054,35.242764090417765
625.7875,35.282802281923544
626.2696,35.32003516547199
626.7517,35.35653679364678
627.2338,35.39264676409487
627.7159,35.42760347324992
628.1981,35.46210982687537
628.6802,35.49512005624872
629.1623,35.52672922158914
629.6444,35.55818405294774
630.1265,35.589405843468676
630.6086,35.61871290058126
631.0908,35.646241610145196
631.5729,35.67288106799406
632.055,35.69832484420779
632.5371,35.72410391865238
633.0192,35.75045698474574
633.5013,35.77646940426332
633.9835,35.80259887136287
634.4656,35.821372280898224
634.9477,35.832035661679086
635.4298,35.838519973839226
635.9119,35.83872291081981
636.394,35.83689714890757
636.8762,35.833350284714086
637.3583,35.82410871971227
637.8404,35.81003604863955
638.3225,35.792563580797925
638.8046,35.771229799076266
639.2867,35.74584989982685
639.7689,35.71658318719809
640.251,35.68990083288821
640.7331,35.66648666985876
641.2152,35.643385504896315
641.6973,35.622507183307526
642.1794,35.59908748146862
642.6616,35.572927087433214
643.1437,35.54814315918654
643.6258,35.52379617439129
644.1079,35.499576807738414
644.59,35.47606404313741
645.0721,35.45287208962673
645.5543,35.430161394089865
646.0364,35.40070476082532
646.5185,35.363768120110024
647.0006,35.32296642933388
647.4827,35.27623156786207
647.9648,35.2279806988816
648.447,35.178470049544636
648.9291,35.123647467862085
649.4112,35.0643869151085
649.8933,35.00907542196013
650.3754,34.95794893067894
650.8575,34.90756271430444
651.3397,34.86009150668406
651.8218,34.809554935340486
652.3039,34.75562155050057
652.786,34.70312652420819
653.2681,34.65079964663379
653.7502,34.599573303590766
654.2324,34.5501611818184
654.7145,34.501296202807886
655.1966,34.453458307334635
655.6787,34.407396616078735
656.1608,34.363139079010956
656.6429,34.320838214353124
657.125,34.280758043869184
657.6072,34.24402819911588
658.0892,34.21095963803779
658.5714,34.18135202702991
659.0535,34.155691367666606
659.5356,34.133545588986614
660.0177,34.11510546336086
660.4999,34.101157028884835
660.9819,34.09179105588946
661.4641,34.084827040858045
661.9462,34.08032175493573
662.4283,34.07954386896377
662.9104,34.08204837840066
663.3926,34.08959447706801
663.8746,34.102468212981584
664.3568,34.11952870250945
664.8389,34.14129505322153
665.321,34.169473562383395
665.8031,34.20422879764001
666.2853,34.24524835587564
666.7673,34.293096836442096
667.2495,34.34673678106941
667.7316,34.40630327976614
668.2137,34.472911852336814
668.6958,34.546489087499054
669.178,34.61136525900425
669.66,34.66620496986974
670.1422,34.7184304391977
670.6243,34.76364160165783
671.1064,34.8113429718274
671.5885,34.862025612721574
672.0707,34.90702298203736
672.5527,34.94818893978849
673.0349,35.00620085446022
673.517,35.08183397918335
673.9991,35.16641229499868
674.4812,35.26537506671054
674.9634,35.36432024619447
675.4454,35.462467597031726
675.9276,35.57167690089839
676.4097,35.688930949562625
676.8918,35.80211302808872
677.3739,35.91154870174308
677.8561,36.02098065289078
678.3381,36.12743941881296
678.8203,36.241072197923266
679.3024,36.362295553540044
679.7845,36.48356739027844
680.2666,36.60706105149964
680.7488,36.73020737187139
681.2308,36.85188326125475
681.713,36.97478637410978
682.1951,37.097932566920136
682.6772,37.2208205244627
683.1593,37.343543021075305
683.6415,37.46538120780021
684.1235,37.58612799706272
684.6057,37.70228108020677
685.0878,37.81316431177512
685.5699,37.92009497556764
686.052,38.02183028529854
686.5342,38.120017251590895
687.0162,38.21445530718617
687.4984,38.303016293498544
687.9805,38.38577197184506
688.4626,38.47581431217274
688.9447,38.573925142593666
689.4269,38.67373079794834
689.9089,38.77869981075014
690.3911,38.880315780919176
690.8732,38.977926971681654
691.3553,39.07871978215816
691.8374,39.180830909614244
692.3196,39.27567141882732
692.8016,39.3632820319111
693.2838,39.44644001083872
693.7659,39.5229575178515
694.248,39.596589872211375
694.7301,39.66725736757582
695.2123,39.73110786908435
695.6943,39.78865302207644
696.1765,39.84299339101499
696.6586,39.89365483253778
697.1407,39.9392157416546
697.6228,39.98015334492391
698.105,40.014544119055834
698.587,40.04204134543887
699.0692,40.06379999001548
699.5513,40.079223141397605
700.0334,40.09492384832097
700.5155,40.11155065425285
700.9977,40.12542942071556
701.4797,40.13838090807377
701.9619,40.14661199498582
702.444,40.14976906169003
702.9261,40.15130626658248
703.4082,40.150396361869
703.8904,40.148108622798404
704.3724,40.14503474290174
704.8546,40.14015065885365
705.3367,40.133950554606585
705.8188,40.126702963125986
706.3009,40.118457101403884
706.7831,40.10961767833446
707.2651,40.10035254050935
707.7473,40.09172701432954
708.2294,40.084062363986796
708.7115,40.077118041396524
709.1936,40.07135930998607
709.6758,40.06646794621674
710.1578,40.06262379775342
710.64,40.06053232552545
711.1221,40.0603007822658
711.6042,40.067864201793974
712.0863,40.08410097662503
712.5685,40.10649200093758
713.0505,40.13695006361667
713.5327,40.17255714312804
714.0148,40.213437013614026
714.4969,40.262944854889646
714.979,40.32076540948557
715.4612,40.38284557169955
715.9432,40.449535959116375
716.4254,40.52286576607787
716.9075,40.60209147705219
717.3896,40.69092711689898
717.8717,40.78991671950088
718.3539,40.8968270544533
718.8359,41.0127469891161
719.3181,41.134429708003665
719.8002,41.26156010722457
720.2823,41.39668532017734
720.7644,41.539026404774134
721.2466,41.69034635397156
721.7286,41.85108295470345
722.2108,42.019822822828424
722.6929,42.1971292641351
723.175,42.366569384266946
723.6571,42.526396344079366
724.1393,42.684816512152764
724.6213,42.83709091850683
725.1035,42.99255964079885
725.5856,43.15170473998002
726.0677,43.30558334756602
726.5498,43.455953993814134
727.032,43.6020414520991
727.514,43.74228046971017
727.9962,43.87787283458006
728.4783,44.00791279226363
728.9604,44.130097893126496
729.4425,44.24393994366711
729.9247,44.34935867592631
730.4067,44.445379350945174
730.8889,44.537235061260255
731.371,44.62486354008111
731.8531,44.7046050011271
732.3352,44.77747150080907
732.8174,44.83964196125603
733.2994,44.89026998639599
733.7816,44.93176995970884
734.2637,44.962881512394745
734.7458,45.00017027214155
735.2279,45.04526140244193
735.7101,45.089155936447604
736.1921,45.136447063168895
736.6743,45.177552627583445
737.1564,45.211654400146664
737.6385,45.24750816715476
738.1206,45.283069748033945
738.6028,45.32594708621627
739.0848,45.378177835921974
739.567,45.43495182277872
740.0491,45.498977856636614
740.5312,45.56821092460807
741.0133,45.642728799929515
741.4955,45.72628114036266
741.9775,45.81884875831492
742.4597,45.924860752053625
742.9418,46.04581831132937
743.424,46.18017038598293
743.906,46.32985602435915
744.3882,46.486928755180166
744.8702,46.651310159687235
745.3524,46.828987956026424
745.8345,47.018392084412554
746.3167,47.19930282399815
746.7987,47.37042082942744
747.2809,47.54023277998424
747.7629,47.70312254752119
748.2451,47.8724614835964
748.7272,48.048745599852325
749.2094,48.22027069880979
749.6914,48.38961041166463
750.1736,48.550898220559944
750.6556,48.70173513637773
751.1378,48.846246861369394
751.6199,48.98196128540176
752.1021,49.10947882997177
